t (s),V (mV)
0,14.2897
1.038,14.2722
2.038,14.2606
3.038,14.2487
4.037,14.237
5.037,14.2238
6.037,14.2117
7.037,14.1991
8.037,14.1862
9.037,14.1744
10.037,14.1608
11.037,14.1479
12.037,14.1353
13.037,14.1226
14.037,14.1105
15.038,14.0971
16.038,14.0839
17.038,14.0726
18.039,14.0588
19.038,14.0465
20.038,14.0327
21.037,14.0148
22.037,14.0065
23.037,13.9932
24.037,13.9802
25.037,13.9671
26.038,13.9529
27.038,13.9405
28.038,13.9261
29.038,13.9142
30.037,13.8996
31.037,13.8874
32.037,13.8736
33.038,13.8605
34.038,13.8476
35.038,13.8349
36.038,13.8217
37.038,13.8091
38.037,13.7962
39.037,13.7823
40.037,13.7693
41.037,13.7563
42.038,13.7442
43.038,13.7302
44.038,13.7177
45.038,13.7038
46.037,13.6917
47.038,13.6793
48.038,13.6661
49.038,13.6532
50.038,13.6411
51.038,13.6282
52.038,13.6157
53.037,13.603
54.037,13.59
55.037,13.5778
56.038,13.5659
57.038,13.553
58.038,13.5412
59.037,13.5285
60.037,13.5168
61.038,13.5047
62.038,13.4921
63.038,13.4788
64.038,13.4668
65.037,13.4543
66.038,13.4416
67.038,13.4298
68.038,13.4172
69.037,13.4039
70.038,13.389
71.038,13.3795
72.037,13.3663
73.037,13.3547
74.038,13.3426
75.038,13.3298
76.037,13.3167
77.038,13.3049
78.038,13.2931
79.037,13.28
80.037,13.2675
81.037,13.2552
82.038,13.2428
83.038,13.23
84.038,13.2189
85.037,13.2064
86.038,13.1943
87.038,13.182
88.037,13.1698
89.037,13.1579
90.038,13.1459
91.038,13.1342
92.037,13.1221
93.037,13.1099
94.038,13.0986
95.038,13.0865
96.037,13.074
97.038,13.0631
98.038,13.0511
99.037,13.0388
100.037,13.0268
101.038,13.0151
102.037,13.0038
103.038,12.9918
104.038,12.9804
105.037,12.9684
106.037,12.9567
107.038,12.9451
108.038,12.9337
109.038,12.9217
110.037,12.9099
111.038,12.899
112.037,12.8864
113.038,12.8759
114.037,12.8632
115.037,12.8524
116.038,12.8404
117.038,12.8289
118.037,12.8169
119.038,12.8059
120.038,12.7949
121.038,12.7832
122.038,12.7723
123.037,12.7605
124.038,12.7489
125.038,12.7372
126.038,12.7261
127.038,12.7141
128.037,12.7025
129.038,12.6912
130.038,12.6802
131.038,12.6688
132.038,12.6577
133.037,12.6459
134.037,12.6354
135.038,12.6232
136.038,12.612
137.037,12.6003
138.038,12.5897
139.038,12.5774
140.038,12.5674
141.037,12.5556
142.038,12.5446
143.038,12.5331
144.037,12.5213
145.038,12.5105
146.037,12.4983
147.038,12.4872
148.037,12.4763
149.038,12.4652
150.037,12.4539
151.037,12.4425
152.038,12.4316
153.038,12.4212
154.038,12.4094
155.038,12.3984
156.037,12.3875
157.038,12.3763
158.038,12.3653
159.038,12.3538
160.037,12.3433
161.038,12.3326
162.038,12.3205
163.037,12.3095
164.038,12.2995
165.037,12.2881
166.038,12.277
167.037,12.267
168.038,12.2567
169.037,12.2449
170.038,12.2347
171.037,12.2236
172.038,12.2128
173.037,12.202
174.038,12.1914
175.037,12.1806
176.038,12.1699
177.037,12.1592
178.038,12.1483
179.037,12.138
180.038,12.1272
181.037,12.1156
182.038,12.1046
183.038,12.0951
184.038,12.0844
185.038,12.0734
186.037,12.0623
187.038,12.0515
188.037,12.0417
189.038,12.031
190.037,12.0208
191.038,12.0098
192.038,12
193.038,11.9899
194.037,11.9786
195.038,11.9678
196.037,11.9585
197.038,11.948
198.037,11.9371
199.038,11.9272
200.038,11.9163
201.037,11.9066
202.038,11.8953
203.037,11.8844
204.038,11.873
205.038,11.8646
206.037,11.8544
207.038,11.8432
208.038,11.8348
209.038,11.8231
210.038,11.8131
211.038,11.8054
212.038,11.7919
213.037,11.7808
214.038,11.7711
215.037,11.7619
216.038,11.751
217.038,11.7412
218.038,11.7312
219.037,11.7206
220.038,11.7103
221.037,11.6999
222.038,11.6894
223.037,11.6792
224.038,11.6699
225.038,11.6602
226.037,11.6488
227.038,11.6384
228.038,11.6309
229.038,11.6204
230.037,11.6106
231.038,11.6
232.037,11.5901
233.038,11.5803
234.038,11.5701
235.038,11.5604
236.038,11.5505
237.037,11.5408
238.038,11.5306
239.037,11.5205
240.038,11.5109
241.037,11.5012
242.038,11.4911
243.037,11.4813
244.038,11.4721
245.038,11.4613
246.038,11.4512
247.037,11.4418
248.038,11.432
249.037,11.4219
250.038,11.4123
251.037,11.4021
252.038,11.3922
253.038,11.3826
254.038,11.3731
255.037,11.3635
256.038,11.353
257.037,11.3436
258.038,11.3336
259.037,11.3239
260.038,11.3148
261.037,11.3048
262.038,11.2954
263.037,11.2856
264.038,11.2753
265.038,11.2666
266.038,11.2571
267.037,11.2472
268.038,11.2373
269.037,11.2284
270.038,11.2185
271.038,11.2109
272.037,11.2016
273.038,11.1898
274.037,11.1821
275.038,11.1718
276.037,11.161
277.038,11.1518
278.038,11.1421
279.038,11.1321
280.038,11.1236
281.038,11.1142
282.038,11.1031
283.037,11.0946
284.038,11.0844
285.038,11.0747
286.037,11.0662
287.038,11.0563
288.038,11.0473
289.038,11.0382
290.038,11.0277
291.038,11.0163
292.037,11.0101
293.038,10.9988
294.037,10.9901
295.038,10.9813
296.037,10.9728
297.038,10.963
298.038,10.9542
299.037,10.9447
300.037,10.9364
301.038,10.9264
302.038,10.918
303.037,10.9093
304.038,10.8996
305.037,10.8905
306.038,10.8826
307.038,10.8731
308.037,10.8649
309.038,10.8561
310.038,10.8467
311.038,10.8368
312.037,10.8287
313.038,10.8212
314.038,10.8109
315.037,10.8023
316.038,10.7933
317.038,10.7845
318.038,10.7747
319.037,10.7651
320.038,10.7578
321.038,10.7486
322.038,10.7404
323.038,10.7309
324.037,10.7215
325.037,10.7136
326.037,10.7048
327.038,10.696
328.038,10.6869
329.037,10.6782
330.037,10.6703
331.038,10.6604
332.038,10.6511
333.038,10.6422
334.038,10.634
335.038,10.6249
336.037,10.6167
337.038,10.6073
338.037,10.5984
339.037,10.5903
340.036,10.5812
341.037,10.5726
342.037,10.5639
343.036,10.5555
344.037,10.5481
345.037,10.5388
346.037,10.5304
347.036,10.5217
348.036,10.5128
349.037,10.5044
350.037,10.496
351.036,10.4863
352.037,10.4772
353.037,10.4686
354.036,10.4596
355.037,10.4499
356.037,10.4407
357.036,10.4322
358.037,10.4221
359.037,10.4142
360.037,10.4055
361.036,10.3973
362.037,10.3882
363.036,10.3798
364.037,10.3716
365.037,10.3624
366.036,10.3545
367.036,10.3458
368.037,10.3366
369.037,10.3276
370.037,10.3195
371.037,10.3107
372.036,10.3013
373.037,10.2923
374.036,10.284
375.036,10.2761
376.037,10.2661
377.037,10.258
378.036,10.249
379.036,10.2406
380.037,10.2325
381.037,10.2247
382.037,10.2157
383.037,10.2078
384.037,10.1997
385.037,10.1913
386.037,10.1835
387.036,10.175
388.036,10.1667
389.037,10.1583
390.036,10.1497
391.037,10.1425
392.037,10.1336
393.037,10.1255
394.037,10.1173
395.037,10.1074
396.037,10.1017
397.037,10.0926
398.037,10.0851
399.037,10.0767
400.037,10.0683
401.036,10.0607
402.037,10.053
403.037,10.0456
404.037,10.037
405.037,10.0288
406.037,10.0214
407.036,10.0127
408.036,10.0038
409.037,9.9965
410.037,9.9884
411.037,9.9805
412.038,9.9724
413.038,9.964
414.037,9.9566
415.038,9.9475
416.038,9.9389
417.037,9.9308
418.037,9.9235
419.038,9.9133
420.038,9.906
421.038,9.8984
422.038,9.889
423.038,9.881
424.038,9.873
425.037,9.8646
426.037,9.8566
427.037,9.8489
428.037,9.8392
429.038,9.8336
430.038,9.8236
431.037,9.8176
432.037,9.8086
433.037,9.8005
434.037,9.794
435.037,9.7844
436.037,9.7769
437.038,9.7673
438.038,9.7599
439.038,9.7516
440.038,9.7439
441.038,9.7351
442.038,9.7278
443.037,9.7195
444.038,9.7112
445.038,9.7034
446.038,9.6957
447.038,9.6886
448.038,9.6813
449.038,9.6732
450.038,9.665
451.038,9.6578
452.038,9.6505
453.038,9.642
454.038,9.6357
455.038,9.6281
456.038,9.6203
457.038,9.6127
458.038,9.6048
459.038,9.5976
460.038,9.5904
461.038,9.5824
462.038,9.5752
463.038,9.5669
464.038,9.5602
465.038,9.5523
466.038,9.5452
467.038,9.5378
